# x(nm) V(x) (eV)
-0.0774084119 1.7717763183
-0.0766343278 1.7091329840
-0.0758602437 1.6442242645
-0.0750861595 1.5778825588
-0.0743120754 1.5108112029
-0.0735379913 1.4436000665
-0.0727639072 1.3767396249
-0.0719898231 1.3106336256
-0.0712157389 1.2456104618
-0.0704416548 1.1819333573
-0.0696675707 1.1198094628
-0.0688934866 1.0593979531
-0.0681194025 1.0008172140
-0.0673453184 0.9441511972
-0.0665712342 0.8894550181
-0.0657971501 0.8367598676
-0.0650230660 0.7860773003
-0.0642489819 0.7374029613
-0.0634748978 0.6907198060
-0.0627008136 0.6460008639
-0.0619267295 0.6032115957
-0.0611526454 0.5623118859
-0.0603785613 0.5232577114
-0.0596044772 0.4860025246
-0.0588303930 0.4504983828
-0.0580563089 0.4166968563
-0.0572822248 0.3845497435
-0.0565081407 0.3540096185
-0.0557340566 0.3250302337
-0.0549599724 0.2975668003
-0.0541858883 0.2715761648
-0.0534118042 0.2470168977
-0.0526377201 0.2238493119
-0.0518636360 0.2020354225
-0.0510895519 0.1815388611
-0.0503154677 0.1623247546
-0.0495413836 0.1443595792
-0.0487672995 0.1276109957
-0.0479932154 0.1120476749
-0.0472191313 0.0976391188
-0.0464450471 0.0843554813
-0.0456709630 0.0721673948
-0.0448968789 0.0610458044
-0.0441227948 0.0509618137
-0.0433487107 0.0418865432
-0.0425746265 0.0337910044
-0.0418005424 0.0266459893
-0.0410264583 0.0204219772
-0.0402523742 0.0150890575
-0.0394782901 0.0106168711
-0.0387042059 0.0069745670
-0.0379301218 0.0041307763
-0.0371560377 0.0020536008
-0.0363819536 0.0007106168
-0.0356078695 0.0000688919
-0.0348337854 0.0000950148
-0.0340597012 0.0007551358
-0.0332856171 0.0020150172
-0.0325115330 0.0038400927
-0.0317374489 0.0061955342
-0.0309633648 0.0090463238
-0.0301892806 0.0123573319
-0.0294151965 0.0160933979
-0.0286411124 0.0202194137
-0.0278670283 0.0247004082
-0.0270929442 0.0295016329
-0.0263188600 0.0345886461
-0.0255447759 0.0399273953
-0.0247706918 0.0454842984
-0.0239966077 0.0512263208
-0.0232225236 0.0571210493
-0.0224484395 0.0631367618
-0.0216743553 0.0692424927
-0.0209002712 0.0754080926
-0.0201261871 0.0816042838
-0.0193521030 0.0878027095
-0.0185780189 0.0939759783
-0.0178039347 0.1000977030
-0.0170298506 0.1061425335
-0.0162557665 0.1120861853
-0.0154816824 0.1179054621
-0.0147075983 0.1235782740
-0.0139335141 0.1290836507
-0.0131594300 0.1344017505
-0.0123853459 0.1395138659
-0.0116112618 0.1444024246
-0.0108371777 0.1490509883
-0.0100630935 0.1534442482
-0.0092890094 0.1575680185
-0.0085149253 0.1614092276
-0.0077408412 0.1649559086
-0.0069667571 0.1681971877
-0.0061926730 0.1711232734
-0.0054185888 0.1737254439
-0.0046445047 0.1759960362
-0.0038704206 0.1779284343
-0.0030963365 0.1795170595
-0.0023222524 0.1807573607
-0.0015481682 0.1816458068
-0.0007740841 0.1821798801
0.0000000000 0.1823580721
0.0007740841 0.1821798801
0.0015481682 0.1816458068
0.0023222524 0.1807573607
0.0030963365 0.1795170595
0.0038704206 0.1779284343
0.0046445047 0.1759960362
0.0054185888 0.1737254439
0.0061926730 0.1711232734
0.0069667571 0.1681971877
0.0077408412 0.1649559086
0.0085149253 0.1614092276
0.0092890094 0.1575680185
0.0100630935 0.1534442482
0.0108371777 0.1490509883
0.0116112618 0.1444024246
0.0123853459 0.1395138659
0.0131594300 0.1344017505
0.0139335141 0.1290836507
0.0147075983 0.1235782740
0.0154816824 0.1179054621
0.0162557665 0.1120861853
0.0170298506 0.1061425335
0.0178039347 0.1000977030
0.0185780189 0.0939759783
0.0193521030 0.0878027095
0.0201261871 0.0816042838
0.0209002712 0.0754080926
0.0216743553 0.0692424927
0.0224484395 0.0631367618
0.0232225236 0.0571210493
0.0239966077 0.0512263208
0.0247706918 0.0454842984
0.0255447759 0.0399273953
0.0263188600 0.0345886461
0.0270929442 0.0295016329
0.0278670283 0.0247004082
0.0286411124 0.0202194137
0.0294151965 0.0160933979
0.0301892806 0.0123573319
0.0309633648 0.0090463238
0.0317374489 0.0061955342
0.0325115330 0.0038400927
0.0332856171 0.0020150172
0.0340597012 0.0007551358
0.0348337854 0.0000950148
0.0356078695 0.0000688919
0.0363819536 0.0007106168
0.0371560377 0.0020536008
0.0379301218 0.0041307763
0.0387042059 0.0069745670
0.0394782901 0.0106168711
0.0402523742 0.0150890575
0.0410264583 0.0204219772
0.0418005424 0.0266459893
0.0425746265 0.0337910044
0.0433487107 0.0418865432
0.0441227948 0.0509618137
0.0448968789 0.0610458044
0.0456709630 0.0721673948
0.0464450471 0.0843554813
0.0472191313 0.0976391188
0.0479932154 0.1120476749
0.0487672995 0.1276109957
0.0495413836 0.1443595792
0.0503154677 0.1623247546
0.0510895519 0.1815388611
0.0518636360 0.2020354225
0.0526377201 0.2238493119
0.0534118042 0.2470168977
0.0541858883 0.2715761648
0.0549599724 0.2975668003
0.0557340566 0.3250302337
0.0565081407 0.3540096185
0.0572822248 0.3845497435
0.0580563089 0.4166968563
0.0588303930 0.4504983828
0.0596044772 0.4860025246
0.0603785613 0.5232577114
0.0611526454 0.5623118859
0.0619267295 0.6032115957
0.0627008136 0.6460008639
0.0634748978 0.6907198060
0.0642489819 0.7374029613
0.0650230660 0.7860773003
0.0657971501 0.8367598676
0.0665712342 0.8894550181
0.0673453184 0.9441511972
0.0681194025 1.0008172140
0.0688934866 1.0593979531
0.0696675707 1.1198094628
0.0704416548 1.1819333573
0.0712157389 1.2456104618
0.0719898231 1.3106336256
0.0727639072 1.3767396249
0.0735379913 1.4436000665
0.0743120754 1.5108112029
0.0750861595 1.5778825588
0.0758602437 1.6442242645
0.0766343278 1.7091329840
0.0774084119 1.7717763183
