# Field(kV/cm) Polarization(microC/cm2)
-500.000000 -0.586942
-498.750000 -0.586939
-497.500000 -0.586935
-496.250000 -0.586932
-495.000000 -0.586928
-493.750000 -0.586925
-492.500000 -0.586921
-491.250000 -0.586918
-490.000000 -0.586914
-488.750000 -0.586911
-487.500000 -0.586907
-486.250000 -0.586904
-485.000000 -0.586900
-483.750000 -0.586897
-482.500000 -0.586893
-481.250000 -0.586890
-480.000000 -0.586886
-478.750000 -0.586883
-477.500000 -0.586880
-476.250000 -0.586876
-475.000000 -0.586873
-473.750000 -0.586869
-472.500000 -0.586866
-471.250000 -0.586863
-470.000000 -0.586859
-468.750000 -0.586856
-467.500000 -0.586853
-466.250000 -0.586849
-465.000000 -0.586846
-463.750000 -0.586843
-462.500000 -0.586839
-461.250000 -0.586836
-460.000000 -0.586833
-458.750000 -0.586829
-457.500000 -0.586826
-456.250000 -0.586823
-455.000000 -0.586820
-453.750000 -0.586816
-452.500000 -0.586813
-451.250000 -0.586810
-450.000000 -0.586807
-448.750000 -0.586803
-447.500000 -0.586800
-446.250000 -0.586797
-445.000000 -0.586794
-443.750000 -0.586791
-442.500000 -0.586787
-441.250000 -0.586784
-440.000000 -0.586781
-438.750000 -0.586778
-437.500000 -0.586775
-436.250000 -0.586771
-435.000000 -0.586768
-433.750000 -0.586765
-432.500000 -0.586762
-431.250000 -0.586759
-430.000000 -0.586756
-428.750000 -0.586753
-427.500000 -0.586749
-426.250000 -0.586746
-425.000000 -0.586743
-423.750000 -0.586740
-422.500000 -0.586737
-421.250000 -0.586734
-420.000000 -0.586731
-418.750000 -0.586728
-417.500000 -0.586724
-416.250000 -0.586721
-415.000000 -0.586718
-413.750000 -0.586715
-412.500000 -0.586712
-411.250000 -0.586709
-410.000000 -0.586706
-408.750000 -0.586703
-407.500000 -0.586700
-406.250000 -0.586696
-405.000000 -0.586693
-403.750000 -0.586690
-402.500000 -0.586687
-401.250000 -0.586684
-400.000000 -0.586681
-398.750000 -0.586678
-397.500000 -0.586675
-396.250000 -0.586672
-395.000000 -0.586669
-393.750000 -0.586666
-392.500000 -0.586662
-391.250000 -0.586659
-390.000000 -0.586656
-388.750000 -0.586653
-387.500000 -0.586650
-386.250000 -0.586647
-385.000000 -0.586644
-383.750000 -0.586641
-382.500000 -0.586638
-381.250000 -0.586635
-380.000000 -0.586632
-378.750000 -0.586628
-377.500000 -0.586625
-376.250000 -0.586622
-375.000000 -0.586619
-373.750000 -0.586616
-372.500000 -0.586613
-371.250000 -0.586610
-370.000000 -0.586607
-368.750000 -0.586604
-367.500000 -0.586600
-366.250000 -0.586597
-365.000000 -0.586594
-363.750000 -0.586591
-362.500000 -0.586588
-361.250000 -0.586585
-360.000000 -0.586582
-358.750000 -0.586579
-357.500000 -0.586575
-356.250000 -0.586572
-355.000000 -0.586569
-353.750000 -0.586566
-352.500000 -0.586563
-351.250000 -0.586560
-350.000000 -0.586557
-348.750000 -0.586553
-347.500000 -0.586550
-346.250000 -0.586547
-345.000000 -0.586544
-343.750000 -0.586541
-342.500000 -0.586537
-341.250000 -0.586534
-340.000000 -0.586531
-338.750000 -0.586528
-337.500000 -0.586525
-336.250000 -0.586521
-335.000000 -0.586518
-333.750000 -0.586515
-332.500000 -0.586512
-331.250000 -0.586508
-330.000000 -0.586505
-328.750000 -0.586502
-327.500000 -0.586499
-326.250000 -0.586495
-325.000000 -0.586492
-323.750000 -0.586489
-322.500000 -0.586485
-321.250000 -0.586482
-320.000000 -0.586479
-318.750000 -0.586475
-317.500000 -0.586472
-316.250000 -0.586469
-315.000000 -0.586465
-313.750000 -0.586462
-312.500000 -0.586459
-311.250000 -0.586455
-310.000000 -0.586452
-308.750000 -0.586448
-307.500000 -0.586445
-306.250000 -0.586442
-305.000000 -0.586438
-303.750000 -0.586435
-302.500000 -0.586431
-301.250000 -0.586428
-300.000000 -0.586424
-298.750000 -0.586421
-297.500000 -0.586417
-296.250000 -0.586414
-295.000000 -0.586410
-293.750000 -0.586407
-292.500000 -0.586403
-291.250000 -0.586400
-290.000000 -0.586396
-288.750000 -0.586393
-287.500000 -0.586389
-286.250000 -0.586385
-285.000000 -0.586382
-283.750000 -0.586378
-282.500000 -0.586375
-281.250000 -0.586371
-280.000000 -0.586367
-278.750000 -0.586364
-277.500000 -0.586360
-276.250000 -0.586356
-275.000000 -0.586352
-273.750000 -0.586349
-272.500000 -0.586345
-271.250000 -0.586341
-270.000000 -0.586337
-268.750000 -0.586334
-267.500000 -0.586330
-266.250000 -0.586326
-265.000000 -0.586322
-263.750000 -0.586318
-262.500000 -0.586314
-261.250000 -0.586311
-260.000000 -0.586307
-258.750000 -0.586303
-257.500000 -0.586299
-256.250000 -0.586295
-255.000000 -0.586291
-253.750000 -0.586287
-252.500000 -0.586283
-251.250000 -0.586279
-250.000000 -0.586275
-248.750000 -0.586271
-247.500000 -0.586267
-246.250000 -0.586263
-245.000000 -0.586258
-243.750000 -0.586254
-242.500000 -0.586250
-241.250000 -0.586246
-240.000000 -0.586242
-238.750000 -0.586238
-237.500000 -0.586233
-236.250000 -0.586229
-235.000000 -0.586225
-233.750000 -0.586220
-232.500000 -0.586216
-231.250000 -0.586212
-230.000000 -0.586207
-228.750000 -0.586203
-227.500000 -0.586199
-226.250000 -0.586194
-225.000000 -0.586190
-223.750000 -0.586185
-222.500000 -0.586181
-221.250000 -0.586176
-220.000000 -0.586172
-218.750000 -0.586167
-217.500000 -0.586163
-216.250000 -0.586158
-215.000000 -0.586153
-213.750000 -0.586149
-212.500000 -0.586144
-211.250000 -0.586139
-210.000000 -0.586134
-208.750000 -0.586130
-207.500000 -0.586125
-206.250000 -0.586120
-205.000000 -0.586115
-203.750000 -0.586110
-202.500000 -0.586105
-201.250000 -0.586100
-200.000000 -0.586095
-198.750000 -0.586090
-197.500000 -0.586085
-196.250000 -0.586080
-195.000000 -0.586075
-193.750000 -0.586070
-192.500000 -0.586065
-191.250000 -0.586060
-190.000000 -0.586055
-188.750000 -0.586049
-187.500000 -0.586044
-186.250000 -0.586039
-185.000000 -0.586034
-183.750000 -0.586028
-182.500000 -0.586023
-181.250000 -0.036680
-180.000000 -0.000637
-178.750000 -0.000631
-177.500000 -0.000625
-176.250000 -0.000619
-175.000000 -0.000613
-173.750000 -0.000608
-172.500000 -0.000602
-171.250000 -0.000596
-170.000000 -0.000591
-168.750000 -0.000585
-167.500000 -0.000580
-166.250000 -0.000574
-165.000000 -0.000569
-163.750000 -0.000563
-162.500000 -0.000558
-161.250000 -0.000552
-160.000000 -0.000547
-158.750000 -0.000542
-157.500000 -0.000536
-156.250000 -0.000531
-155.000000 -0.000526
-153.750000 -0.000520
-152.500000 -0.000515
-151.250000 -0.000510
-150.000000 -0.000505
-148.750000 -0.000500
-147.500000 -0.000495
-146.250000 -0.000489
-145.000000 -0.000484
-143.750000 -0.000479
-142.500000 -0.000474
-141.250000 -0.000469
-140.000000 -0.000464
-138.750000 -0.000459
-137.500000 -0.000455
-136.250000 -0.000450
-135.000000 -0.000445
-133.750000 -0.000440
-132.500000 -0.000435
-131.250000 -0.000430
-130.000000 -0.000426
-128.750000 -0.000421
-127.500000 -0.000416
-126.250000 -0.000411
-125.000000 -0.000407
-123.750000 -0.000402
-122.500000 -0.000397
-121.250000 -0.000393
-120.000000 -0.000388
-118.750000 -0.000384
-117.500000 -0.000379
-116.250000 -0.000374
-115.000000 -0.000370
-113.750000 -0.000365
-112.500000 -0.000361
-111.250000 -0.000356
-110.000000 -0.000352
-108.750000 -0.000348
-107.500000 -0.000343
-106.250000 -0.000339
-105.000000 -0.000334
-103.750000 -0.000330
-102.500000 -0.000326
-101.250000 -0.000321
-100.000000 -0.000317
-98.750000 -0.000313
-97.500000 -0.000308
-96.250000 -0.000304
-95.000000 -0.000300
-93.750000 -0.000295
-92.500000 -0.000291
-91.250000 -0.000287
-90.000000 -0.000283
-88.750000 -0.000279
-87.500000 -0.000274
-86.250000 -0.000270
-85.000000 -0.000266
-83.750000 -0.000262
-82.500000 -0.000258
-81.250000 -0.000254
-80.000000 -0.000250
-78.750000 -0.000246
-77.500000 -0.000242
-76.250000 -0.000237
-75.000000 -0.000233
-73.750000 -0.000229
-72.500000 -0.000225
-71.250000 -0.000221
-70.000000 -0.000217
-68.750000 -0.000213
-67.500000 -0.000209
-66.250000 -0.000205
-65.000000 -0.000201
-63.750000 -0.000197
-62.500000 -0.000193
-61.250000 -0.000190
-60.000000 -0.000186
-58.750000 -0.000182
-57.500000 -0.000178
-56.250000 -0.000174
-55.000000 -0.000170
-53.750000 -0.000166
-52.500000 -0.000162
-51.250000 -0.000158
-50.000000 -0.000154
-48.750000 -0.000151
-47.500000 -0.000147
-46.250000 -0.000143
-45.000000 -0.000139
-43.750000 -0.000135
-42.500000 -0.000131
-41.250000 -0.000128
-40.000000 -0.000124
-38.750000 -0.000120
-37.500000 -0.000116
-36.250000 -0.000112
-35.000000 -0.000109
-33.750000 -0.000105
-32.500000 -0.000101
-31.250000 -0.000097
-30.000000 -0.000094
-28.750000 -0.000090
-27.500000 -0.000086
-26.250000 -0.000082
-25.000000 -0.000079
-23.750000 -0.000075
-22.500000 -0.000071
-21.250000 -0.000067
-20.000000 -0.000064
-18.750000 -0.000060
-17.500000 -0.000056
-16.250000 -0.000052
-15.000000 -0.000049
-13.750000 -0.000045
-12.500000 -0.000041
-11.250000 -0.000038
-10.000000 -0.000034
-8.750000 -0.000030
-7.500000 -0.000026
-6.250000 -0.000023
-5.000000 -0.000019
-3.750000 -0.000015
-2.500000 -0.000012
-1.250000 -0.000008
0.000000 -0.000004
1.250000 -0.000000
2.500000 0.000003
3.750000 0.000007
5.000000 0.000011
6.250000 0.000014
7.500000 0.000018
8.750000 0.000022
10.000000 0.000026
11.250000 0.000029
12.500000 0.000033
13.750000 0.000037
15.000000 0.000040
16.250000 0.000044
17.500000 0.000048
18.750000 0.000052
20.000000 0.000055
21.250000 0.000059
22.500000 0.000063
23.750000 0.000066
25.000000 0.000070
26.250000 0.000074
27.500000 0.000078
28.750000 0.000081
30.000000 0.000085
31.250000 0.000089
32.500000 0.000093
33.750000 0.000096
35.000000 0.000100
36.250000 0.000104
37.500000 0.000108
38.750000 0.000112
40.000000 0.000115
41.250000 0.000119
42.500000 0.000123
43.750000 0.000127
45.000000 0.000131
46.250000 0.000134
47.500000 0.000138
48.750000 0.000142
50.000000 0.000146
51.250000 0.000150
52.500000 0.000154
53.750000 0.000157
55.000000 0.000161
56.250000 0.000165
57.500000 0.000169
58.750000 0.000173
60.000000 0.000177
61.250000 0.000181
62.500000 0.000185
63.750000 0.000189
65.000000 0.000193
66.250000 0.000196
67.500000 0.000200
68.750000 0.000204
70.000000 0.000208
71.250000 0.000212
72.500000 0.000216
73.750000 0.000220
75.000000 0.000224
76.250000 0.000228
77.500000 0.000232
78.750000 0.000236
80.000000 0.000241
81.250000 0.000245
82.500000 0.000249
83.750000 0.000253
85.000000 0.000257
86.250000 0.000261
87.500000 0.000265
88.750000 0.000269
90.000000 0.000273
91.250000 0.000278
92.500000 0.000282
93.750000 0.000286
95.000000 0.000290
96.250000 0.000294
97.500000 0.000299
98.750000 0.000303
100.000000 0.000307
101.250000 0.000312
102.500000 0.000316
103.750000 0.000320
105.000000 0.000325
106.250000 0.000329
107.500000 0.000333
108.750000 0.000338
110.000000 0.000342
111.250000 0.000346
112.500000 0.000351
113.750000 0.000355
115.000000 0.000360
116.250000 0.000364
117.500000 0.000369
118.750000 0.000373
120.000000 0.000378
121.250000 0.000382
122.500000 0.000387
123.750000 0.000392
125.000000 0.000396
126.250000 0.000401
127.500000 0.000406
128.750000 0.000410
130.000000 0.000415
131.250000 0.000420
132.500000 0.000424
133.750000 0.000429
135.000000 0.000434
136.250000 0.000439
137.500000 0.000444
138.750000 0.000449
140.000000 0.000453
141.250000 0.000458
142.500000 0.000463
143.750000 0.000468
145.000000 0.000473
146.250000 0.000478
147.500000 0.000483
148.750000 0.000488
150.000000 0.000493
151.250000 0.000498
152.500000 0.000504
153.750000 0.000509
155.000000 0.000514
156.250000 0.000519
157.500000 0.000524
158.750000 0.000530
160.000000 0.000535
161.250000 0.000540
162.500000 0.000546
163.750000 0.000551
165.000000 0.000556
166.250000 0.000562
167.500000 0.000567
168.750000 0.000573
170.000000 0.000578
171.250000 0.000584
172.500000 0.000589
173.750000 0.000595
175.000000 0.000601
176.250000 0.000606
177.500000 0.000612
178.750000 0.000618
180.000000 0.000624
181.250000 0.038642
182.500000 0.586023
183.750000 0.586028
185.000000 0.586034
186.250000 0.586039
187.500000 0.586044
188.750000 0.586049
190.000000 0.586055
191.250000 0.586060
192.500000 0.586065
193.750000 0.586070
195.000000 0.586075
196.250000 0.586080
197.500000 0.586085
198.750000 0.586090
200.000000 0.586095
201.250000 0.586100
202.500000 0.586105
203.750000 0.586110
205.000000 0.586115
206.250000 0.586120
207.500000 0.586125
208.750000 0.586130
210.000000 0.586134
211.250000 0.586139
212.500000 0.586144
213.750000 0.586149
215.000000 0.586153
216.250000 0.586158
217.500000 0.586163
218.750000 0.586167
220.000000 0.586172
221.250000 0.586176
222.500000 0.586181
223.750000 0.586185
225.000000 0.586190
226.250000 0.586194
227.500000 0.586199
228.750000 0.586203
230.000000 0.586207
231.250000 0.586212
232.500000 0.586216
233.750000 0.586220
235.000000 0.586225
236.250000 0.586229
237.500000 0.586233
238.750000 0.586238
240.000000 0.586242
241.250000 0.586246
242.500000 0.586250
243.750000 0.586254
245.000000 0.586258
246.250000 0.586263
247.500000 0.586267
248.750000 0.586271
250.000000 0.586275
251.250000 0.586279
252.500000 0.586283
253.750000 0.586287
255.000000 0.586291
256.250000 0.586295
257.500000 0.586299
258.750000 0.586303
260.000000 0.586307
261.250000 0.586311
262.500000 0.586314
263.750000 0.586318
265.000000 0.586322
266.250000 0.586326
267.500000 0.586330
268.750000 0.586334
270.000000 0.586337
271.250000 0.586341
272.500000 0.586345
273.750000 0.586349
275.000000 0.586352
276.250000 0.586356
277.500000 0.586360
278.750000 0.586364
280.000000 0.586367
281.250000 0.586371
282.500000 0.586375
283.750000 0.586378
285.000000 0.586382
286.250000 0.586385
287.500000 0.586389
288.750000 0.586393
290.000000 0.586396
291.250000 0.586400
292.500000 0.586403
293.750000 0.586407
295.000000 0.586410
296.250000 0.586414
297.500000 0.586417
298.750000 0.586421
300.000000 0.586424
301.250000 0.586428
302.500000 0.586431
303.750000 0.586435
305.000000 0.586438
306.250000 0.586442
307.500000 0.586445
308.750000 0.586448
310.000000 0.586452
311.250000 0.586455
312.500000 0.586459
313.750000 0.586462
315.000000 0.586465
316.250000 0.586469
317.500000 0.586472
318.750000 0.586475
320.000000 0.586479
321.250000 0.586482
322.500000 0.586485
323.750000 0.586489
325.000000 0.586492
326.250000 0.586495
327.500000 0.586499
328.750000 0.586502
330.000000 0.586505
331.250000 0.586508
332.500000 0.586512
333.750000 0.586515
335.000000 0.586518
336.250000 0.586521
337.500000 0.586525
338.750000 0.586528
340.000000 0.586531
341.250000 0.586534
342.500000 0.586537
343.750000 0.586541
345.000000 0.586544
346.250000 0.586547
347.500000 0.586550
348.750000 0.586553
350.000000 0.586557
351.250000 0.586560
352.500000 0.586563
353.750000 0.586566
355.000000 0.586569
356.250000 0.586572
357.500000 0.586575
358.750000 0.586579
360.000000 0.586582
361.250000 0.586585
362.500000 0.586588
363.750000 0.586591
365.000000 0.586594
366.250000 0.586597
367.500000 0.586600
368.750000 0.586604
370.000000 0.586607
371.250000 0.586610
372.500000 0.586613
373.750000 0.586616
375.000000 0.586619
376.250000 0.586622
377.500000 0.586625
378.750000 0.586628
380.000000 0.586632
381.250000 0.586635
382.500000 0.586638
383.750000 0.586641
385.000000 0.586644
386.250000 0.586647
387.500000 0.586650
388.750000 0.586653
390.000000 0.586656
391.250000 0.586659
392.500000 0.586662
393.750000 0.586666
395.000000 0.586669
396.250000 0.586672
397.500000 0.586675
398.750000 0.586678
400.000000 0.586681
401.250000 0.586684
402.500000 0.586687
403.750000 0.586690
405.000000 0.586693
406.250000 0.586696
407.500000 0.586700
408.750000 0.586703
410.000000 0.586706
411.250000 0.586709
412.500000 0.586712
413.750000 0.586715
415.000000 0.586718
416.250000 0.586721
417.500000 0.586724
418.750000 0.586728
420.000000 0.586731
421.250000 0.586734
422.500000 0.586737
423.750000 0.586740
425.000000 0.586743
426.250000 0.586746
427.500000 0.586749
428.750000 0.586753
430.000000 0.586756
431.250000 0.586759
432.500000 0.586762
433.750000 0.586765
435.000000 0.586768
436.250000 0.586771
437.500000 0.586775
438.750000 0.586778
440.000000 0.586781
441.250000 0.586784
442.500000 0.586787
443.750000 0.586791
445.000000 0.586794
446.250000 0.586797
447.500000 0.586800
448.750000 0.586803
450.000000 0.586807
451.250000 0.586810
452.500000 0.586813
453.750000 0.586816
455.000000 0.586820
456.250000 0.586823
457.500000 0.586826
458.750000 0.586829
460.000000 0.586833
461.250000 0.586836
462.500000 0.586839
463.750000 0.586843
465.000000 0.586846
466.250000 0.586849
467.500000 0.586853
468.750000 0.586856
470.000000 0.586859
471.250000 0.586863
472.500000 0.586866
473.750000 0.586869
475.000000 0.586873
476.250000 0.586876
477.500000 0.586880
478.750000 0.586883
480.000000 0.586886
481.250000 0.586890
482.500000 0.586893
483.750000 0.586897
485.000000 0.586900
486.250000 0.586904
487.500000 0.586907
488.750000 0.586911
490.000000 0.586914
491.250000 0.586918
492.500000 0.586921
493.750000 0.586925
495.000000 0.586928
496.250000 0.586932
497.500000 0.586935
498.750000 0.586939
500.000000 0.586942
